time,valueA,valueB,valueC,valueD
370.247,2063.74,1982.64,1321.31,510.5
370.612,2086.6,1996.69,1325.04,512.53
370.977,2106.85,2006.95,1328.83,512
371.342,2129.34,2018.76,1335.34,512.18
371.706,2153.9,2030.34,1337.83,510.75
372.071,2175.41,2043.65,1339.4,510.04
372.436,2194.01,2053.93,1340.04,510.42
372.8,2219.9,2066.37,1346.02,513.22
373.165,2243.2,2077.94,1351.91,514.34
373.53,2259.11,2094.55,1360.89,517.04
373.894,2284.92,2105.17,1364.73,514.08
374.259,2303.64,2117.39,1368.35,515.38
374.623,2324.13,2123.72,1372.26,514.5
374.987,2348.69,2134.67,1375.88,515.51
375.352,2372.44,2147.91,1377.57,515.4
375.716,2401.41,2158.96,1381.44,518.76
376.081,2441.63,2168.52,1384.28,517.04
376.445,2493.64,2179.92,1388.92,516.44
376.809,2554.79,2193.58,1390.24,515.27
377.173,2640.27,2202.83,1389.64,513.92
377.537,2751.66,2215.34,1392.78,513.33
377.902,2888.38,2230.56,1396.35,514.7
378.266,3054.84,2244.51,1399.37,517.43
378.63,3263.38,2260.66,1401.05,518.45
378.994,3519.43,2272.98,1403.46,515.89
379.358,3823.56,2283.85,1408.73,518.01
379.722,4172.55,2303.2,1415.57,517.52
380.086,4574.19,2321.41,1423.78,520.48
380.45,5054.78,2338.89,1427.66,518.36
380.813,5597.57,2354.95,1435.17,518.56
381.177,6225.94,2373.2,1442.16,520.37
381.541,6922.68,2389.08,1445.03,521.58
381.905,7709.57,2402.68,1452.38,522.4
382.268,8594.44,2419.89,1460.21,519.55
382.632,9577.89,2434.94,1466.79,520.3
382.996,10658.18,2452.72,1469.52,525.09
383.359,11887.48,2471.37,1471.33,525.07
383.723,13196.1,2486.17,1477.31,524.91
384.086,14624.28,2501.58,1479.05,521.29
384.45,16124.24,2519.51,1486.09,526.79
384.813,17723.18,2537.37,1486,531.53
385.177,19452.05,2558.44,1490.35,531.05
385.54,21254.77,2578.76,1497.92,530.78
385.904,23123.33,2602.42,1499,533.89
386.267,25023.78,2620.73,1502.88,536.89
386.63,26958.52,2637.52,1505.03,537.51
386.993,28800.3,2659.48,1510.65,536.23
387.357,30575.24,2679.6,1517.76,538.95
387.72,32220.8,2702.88,1522.48,542.32
388.083,33717.96,2725.34,1528.88,546.96
388.446,35109.29,2745.4,1530.27,545.37
388.809,36277.82,2766.12,1531.33,543.98
389.172,37169.36,2786.27,1537.73,545.48
389.535,37793.51,2809.26,1543.51,546.38
389.898,38149.89,2832.1,1549.88,545.21
390.261,38214.01,2857.8,1556.95,543.91
390.624,37994.17,2893.99,1565,543.87
390.987,37564.4,2920.07,1572.39,543.65
391.349,36873.17,2950.52,1578.86,542.98
391.712,35999.33,2982.96,1586.84,544.24
392.075,34898.76,3017.18,1595.85,546.45
392.438,33593.69,3048.23,1606.04,547.55
392.8,32155.95,3082.63,1621.77,548.43
393.163,30599.95,3119.19,1629.54,548.59
393.525,29010.07,3153.99,1636.71,550.58
393.888,27375.05,3191.15,1644.92,551.15
394.251,25727.76,3230.58,1651.94,552.12
394.613,24035.92,3265.22,1661.34,553.97
394.975,22401.65,3305.71,1670.14,557.04
395.338,20792.65,3357.59,1677.76,557.48
395.7,19270.56,3405.19,1686.71,558.87
396.063,17839.36,3452.91,1695.61,558.76
396.425,16488.21,3510.02,1704.85,559.73
396.787,15238.06,3565.8,1711.45,561.98
397.149,14071.38,3628.29,1721.18,564.32
397.512,12974.08,3697.53,1732.04,566.07
397.874,11940.72,3763.29,1742.39,567.39
398.236,11008.01,3836.57,1750.46,568.65
398.598,10165.36,3911.81,1758.58,570.28
398.96,9381.22,3997.01,1768.93,570.61
399.322,8660.84,4069.01,1775.26,572.77
399.684,7994.15,4148.78,1780.01,571.03
400.046,7396.3,4230.57,1782.83,570.68
400.408,6835.39,4315.39,1791,572.35
400.77,6325.26,4411.78,1798.87,573.17
401.131,5865.8,4498.52,1804.65,574.1
401.493,5445.9,4594.13,1808.78,574.01
401.855,5064.05,4710.26,1817.72,574.6
402.217,4711.55,4825.04,1826.81,574.74
402.578,4407.07,4950,1837.14,575.4
402.94,4122.77,5078.53,1845.94,575.38
403.301,3869.37,5225.14,1859.89,578.66
403.663,3632.78,5377.97,1866.88,581.18
404.025,3420.69,5554.73,1880.69,586.45
404.386,3228.74,5742.93,1889.03,588.73
404.748,3060.53,5930.82,1893.62,586.5
405.109,2907.93,6137.93,1901.55,587.47
405.47,2771.34,6357.13,1912.16,590.03
405.832,2650.6,6576.99,1919.88,591.35
406.193,2544.35,6817.02,1927.52,594.88
406.554,2445.87,7091.03,1939.92,597.27
406.915,2358.91,7375.79,1949.18,600.69
407.277,2279.16,7687.91,1958.06,600.89
407.638,2214.2,8013.49,1972.91,603.2
407.999,2153.41,8353.56,1980.69,601.11
408.36,2099.44,8728.88,1991.93,602.1
408.721,2050.28,9130.8,2007.66,605.3
409.082,2007.4,9563.4,2019.51,608.25
409.443,1970.49,10020.91,2029.31,608.89
409.804,1936.48,10526.81,2038.66,611.26
410.165,1905.81,11055.48,2048.55,613.71
410.526,1877.42,11610.96,2052.56,612.76
410.887,1852.46,12223.02,2061.19,615.23
411.247,1829.89,12874.73,2074.5,614.3
411.608,1808.79,13557.22,2085.33,617.04
411.969,1789.68,14295.87,2101.59,620.1
412.329,1771.1,15067.46,2114.43,621.45
412.69,1751.44,15915.02,2131.56,623.81
413.051,1736.72,16813.07,2149.54,625.07
413.411,1721.15,17721.12,2165.63,626.64
413.772,1706.76,18678.92,2184.52,630.01
414.132,1692.75,19662.79,2199.32,630.67
414.493,1682.82,20702.45,2217.81,635.95
414.853,1674.32,21759.55,2231.29,636.98
415.214,1665.36,22878.48,2243.12,640.56
415.574,1656.34,24051.12,2255.24,640.63
415.934,1646.26,25291.56,2264.33,642.13
416.294,1636.7,26589.35,2274.65,643.01
416.655,1630.48,27919.76,2285.33,644.99
417.015,1620.39,29316.36,2296.01,646.3
417.375,1611.13,30788.11,2310.73,648.7
417.735,1604.24,32259.52,2319.84,651.17
418.095,1596.63,33769.78,2332.29,655.37
418.455,1583.68,35380.15,2345.29,657.02
418.815,1574.14,37045.23,2364.17,659.89
419.175,1563.55,38726.28,2377.72,663.73
419.535,1553.42,40385.7,2391.18,667.99
419.895,1543.78,42057.71,2405.9,672.73
420.255,1536.83,43759.54,2423.11,675.71
420.615,1527.72,45588.43,2442.66,677.03
420.974,1517.33,47167.63,2457.14,679.09
421.334,1506.69,48783.47,2473.2,681.78
421.694,1497.2,50349.43,2491.82,681.42
422.054,1487.58,51961.33,2514.26,682.84
422.413,1483.37,53403.43,2531.94,684.29
422.773,1473.37,54596.71,2542.11,687.23
423.132,1461.5,55739.52,2557.54,689.85
423.492,1451.83,56935.45,2579.47,691.35
423.851,1444.82,57882.62,2595.13,690.87
424.211,1436.1,58752.41,2613.63,693.87
424.57,1428.6,59249.04,2622.85,695.26
424.93,1423.26,59903.37,2642.25,698.42
425.289,1417.96,60368.03,2655.75,702.17
425.648,1414.08,60716.93,2672.94,705.83
426.007,1407.95,60854.89,2686.35,708.43
426.367,1396.69,60909.7,2703.3,712.12
426.726,1389.15,61082.45,2727.51,714.83
427.085,1383.5,60987.94,2748.18,717.97
427.444,1376.99,60772.49,2764.33,720.24
427.803,1369.95,60609.56,2788.56,724.56
428.162,1363.15,60157,2810.12,729.04
428.521,1357.2,59743.57,2835.94,733.83
428.88,1350.88,59044.58,2851.76,738.95
429.239,1342.83,58334.17,2875.63,743.43
429.598,1332.37,57633.92,2897.7,747.73
429.957,1325,56711.29,2917.69,751.64
430.316,1321.6,55754.65,2940.31,754.13
430.674,1316.13,54551.11,2959.04,753.14
431.033,1311.74,53410.05,2979.92,755.06
431.392,1306.49,52266.49,3009.81,757.2
431.75,1301.92,50931.06,3033.82,759.14
432.109,1294.73,49703.06,3063.43,760.97
432.468,1286.01,48403.61,3089.01,761.52
432.826,1276.74,47134.53,3122.68,761.68
433.185,1267.21,45801.06,3150.95,760.13
433.543,1260.24,44380.89,3186.45,761.94
433.901,1252.85,43118.51,3223.41,762.69
434.26,1245.48,41778.44,3256.93,765.03
434.618,1235.97,40558.24,3290.84,771.3
434.977,1226.81,39366.91,3336.85,770.64
435.335,1217.25,38025.25,3374.36,774.23
435.693,1204.32,36854.38,3419.73,780.48
436.051,1194.51,35677.69,3461.81,783.74
436.409,1185.37,34508.8,3511.08,788.75
436.767,1177.89,33400.27,3558.63,789.79
437.126,1173.63,32279.64,3607.2,795.46
437.484,1167.54,31223.8,3652.59,795.37
437.842,1159.55,30164.14,3698.51,798.68
438.2,1148.32,29191.35,3753.27,800.6
438.558,1143.4,28267.36,3817.24,799.59
438.915,1136.23,27273.14,3868.3,802.92
439.273,1130.16,26376.99,3925.56,805.04
439.631,1126.56,25438.41,3987.46,801.97
439.989,1124.38,24550.24,4050.3,804.35
440.347,1122.13,23726.93,4119.01,806.71
440.704,1115.4,22946.33,4187.5,810.99
441.062,1107.63,22229.4,4263.25,811.85
441.42,1099.38,21531.88,4346.07,818.25
441.777,1091.59,20922.78,4441.79,819.34
442.135,1084.6,20301.61,4536.63,820.11
442.492,1078.64,19700.34,4633.54,824.76
442.85,1071.58,19157.22,4730.94,827.57
443.207,1066.41,18598.63,4827.78,830.7
443.564,1058.01,18056.96,4923.79,833.52
443.922,1051.03,17534.84,5033.1,835.77
444.279,1043.05,17019.43,5126.86,838.77
444.636,1037.51,16559.96,5242.97,841.03
444.994,1032.37,16102.56,5366.65,842.44
445.351,1027.78,15616.3,5477.95,845.09
445.708,1024.86,15141.64,5597.15,849.52
446.065,1023.54,14692.87,5722.19,852.46
446.422,1016.37,14245.05,5860.96,854.26
446.779,1012.64,13846.26,6016.72,858.59
447.136,1006.97,13455.96,6193.16,861.63
447.493,1006.35,13091.1,6369.53,864.15
447.85,1000.39,12721.53,6555.21,864.46
448.207,995.27,12360.6,6761.57,866.95
448.564,992.91,12002.91,6980.64,869.91
448.921,988.1,11633.98,7195.8,870.46
449.278,984.73,11317.69,7449.2,870.77
449.634,981.44,10988.95,7712.91,873.31
449.991,975.04,10650.27,7976.68,876.29
450.348,971.95,10338.24,8260.89,880.1
450.704,969.24,10023.34,8570.12,882.91
451.061,964.93,9730.84,8896.03,881.87
451.417,956.66,9438.55,9238.82,884.94
451.774,950.77,9147.51,9580.33,888.22
452.13,946.53,8877.34,9949.95,889.11
452.487,941.41,8594.37,10314.12,893.43
452.843,935.74,8344.58,10709.05,897.56
453.199,931.44,8087.96,11095.53,900.32
453.556,924.55,7837.34,11488.04,900.93
453.912,921.05,7614.83,11922.84,901.15
454.268,917.16,7388.17,12374.15,901.99
454.624,910.56,7157.78,12794.21,901.44
454.981,905.56,6936.11,13222.4,906.83
455.337,903.3,6726.29,13648.62,907.58
455.693,901.21,6527.43,14097.98,908.75
456.049,896.66,6332.04,14565.62,910.84
456.405,892.05,6156.77,15057.77,909.85
456.761,888.85,5994.19,15599.53,913.11
457.117,886.58,5837.24,16153.93,914.44
457.473,882.98,5692.09,16720.4,915.78
457.829,878.15,5550.14,17291.41,918.85
458.184,873.52,5403.03,17845.57,921.81
458.54,868.44,5269.34,18413.45,926
458.896,866.34,5145.88,19057.2,927.13
459.251,864.01,5026.75,19679.18,932.88
459.607,861.4,4909,20312.4,937.39
459.963,859.24,4808.08,20972.36,936.83
460.318,858.42,4706.6,21625.88,938.64
460.674,856.06,4595.56,22279.42,941.76
461.029,850.74,4497.52,22945.45,944.8
461.385,846.73,4405.89,23661.06,949.68
461.74,844.54,4312.53,24350.04,952.37
462.096,840.86,4232.58,25139.73,952.1
462.451,841.5,4163.65,25948.5,952.32
462.806,834.46,4081.98,26761.64,955.9
463.162,830.07,4015.17,27646.12,955.94
463.517,827.38,3961.37,28640.38,956.89
463.872,823.23,3892.17,29564.93,964.95
464.227,818.97,3825.18,30460.62,972.16
464.582,814.31,3765.98,31351.01,975.52
464.937,811.36,3706.14,32353.01,980.02
465.292,808.29,3645.41,33399.65,980.08
465.647,805.6,3587.1,34408.32,983.22
466.002,803.08,3529.5,35373.4,988.47
466.357,797.35,3475.77,36501.22,993.34
466.712,796.22,3430.47,37662.63,996.72
467.067,793.48,3384.64,38751.83,1003.12
467.422,787.64,3330.69,39863.85,1009.39
467.776,785.21,3289.3,41019.32,1011.02
468.131,781.55,3253.75,42312.19,1012.56
468.486,779.14,3213.13,43644.01,1016.43
468.84,774.26,3176.3,44968.76,1019.07
469.195,771.93,3140.71,46218.85,1025.58
469.549,767.09,3112.9,47624.67,1029.91
469.904,762.77,3082.89,49045.5,1035.23
470.258,761,3043.95,50275.36,1040.15
470.613,758.33,3009.09,51427.96,1043.01
470.967,754.82,2980.93,52855.49,1044.45
471.322,752.02,2955.33,54076.72,1047.98
471.676,749.09,2927.55,55290.61,1054.27
472.03,745.16,2895.56,56299.61,1059.37
472.384,744.01,2869.63,57317.28,1062.19
472.739,741.94,2832.82,58025.65,1067.75
473.093,738.58,2793.64,58780.74,1072.36
473.447,734.39,2751.6,59463.69,1079.51
473.801,732.63,2706.32,59824.33,1084.32
474.155,729.43,2664.46,60132.37,1088.03
474.509,727.02,2613.91,60224.43,1092.99
474.863,725.85,2561.92,60161.28,1099.92
475.217,722.92,2512.25,60116.55,1103.19
475.571,719.06,2468.76,60117.7,1107.16
475.925,715.97,2425.89,59877.05,1110.73
476.278,713.14,2383.83,59454.32,1118.08
476.632,710.65,2345.46,59018.01,1125.85
476.986,707.01,2310.93,58416.5,1132.62
477.34,707.65,2276.66,57504.4,1138.69
477.693,705.44,2250.34,56611.95,1141.91
478.047,703.43,2229.81,55621.82,1146.88
478.4,702.22,2213.62,54642.44,1153.76
478.754,699.59,2197.14,53339.48,1159.08
479.107,699.99,2183.17,51998.6,1164.55
479.461,697.01,2164.5,50282.97,1169.21
479.814,695.09,2143.25,48710.37,1175.43
480.168,693.22,2129.06,47136.34,1180.44
480.521,691.3,2117.15,45499.09,1183.15
480.874,689.93,2105.67,43771.08,1187.83
481.228,686.73,2096.1,42065.28,1192.66
481.581,685.54,2087.34,40444.53,1201.87
481.934,683.93,2074.98,38838.51,1210.25
482.287,679.03,2063.9,37323.94,1216.05
482.64,673.53,2055.28,35940.93,1222.63
482.993,670.29,2044.55,34391.81,1231.46
483.346,668.92,2032.08,33057.5,1239.62
483.699,665.94,2024.05,31766.62,1246.2
484.052,662.92,2013.2,30492.55,1252.31
484.405,660.38,2004.97,29395,1259.81
484.758,659.13,1993.65,28316.28,1270.05
485.111,656.52,1983.12,27401.74,1280.4
485.463,654.18,1971.4,26515.7,1288.12
485.816,650.5,1962.91,25694.81,1300.3
486.169,651.87,1952.29,24868.98,1310.25
486.521,651.38,1942.83,24080.2,1322.9
486.874,650.3,1931.55,23412.07,1335.65
487.227,649.99,1919.97,22735.59,1346.62
487.579,647.61,1911.87,22147.6,1357.76
487.932,644.98,1899.91,21544.72,1370.4
488.284,644.03,1891.68,20983.31,1384.94
488.636,642.95,1883.01,20496.78,1397.37
488.989,643.97,1873.9,19978.08,1409.48
489.341,642.31,1865.25,19509.3,1426.25
489.693,641.74,1857.3,19047.2,1441.92
490.046,638.43,1848.43,18578.17,1457.23
490.398,637.66,1835.63,18116.6,1470.76
490.75,634.63,1826.19,17703.89,1487.31
491.102,632.23,1821.18,17351.23,1506.48
491.454,628.96,1814.03,16995.09,1527.4
491.806,627.95,1804.7,16617.02,1548.1
492.158,626.36,1795.25,16217.02,1567.74
492.51,622.98,1786.36,15834.66,1587.07
492.862,619.74,1777.95,15508.35,1608.36
493.214,616.12,1767.1,15143.15,1627
493.566,612.3,1756.53,14780.89,1643.24
493.918,608.62,1747.37,14434.71,1665.97
494.269,606.41,1737.31,14102.44,1688.48
494.621,605.29,1727.18,13792.13,1708.78
494.973,602.42,1719.57,13494.89,1730.43
495.324,604.8,1708.27,13205.03,1756.77
495.676,603.08,1702.16,12990.44,1785.66
496.028,599.44,1692.74,12781.52,1816.68
496.379,599.97,1686.25,12595.07,1849.56
496.731,596.57,1680.91,12400.56,1882.57
497.082,595.8,1669.66,12214.24,1916.37
497.433,595.18,1662.04,12037.03,1955.52
497.785,593.66,1653.79,11848.65,1995.99
498.136,591.38,1648.52,11655.32,2037.29
498.487,592,1639.54,11461.93,2081.45
498.839,590.81,1628.57,11244.94,2127.32
499.19,588.27,1621.31,11035.2,2172.05
499.541,587.79,1609.26,10792.95,2214.3
499.892,589.29,1601.74,10551.99,2258.83
500.243,588.65,1593.22,10231.77,2307.84
500.594,587.72,1583.18,9821,2362.52
500.945,585.87,1583.75,9357.51,2418.59
501.296,582.85,1576.47,8846.07,2477.81
501.647,581.72,1570.47,8317.84,2535.01
501.998,582.25,1563.56,7781.93,2603.23
502.349,578.85,1560.45,7228.48,2666.21
502.7,579.14,1553.3,6677.13,2737.04
503.05,576.93,1543.31,6115.91,2806.28
503.401,576.31,1537.04,5574.24,2886.2
503.752,572.67,1526.71,5054.88,2968.44
504.102,571.06,1519.87,4612.86,3045.56
504.453,570.62,1514.95,4291.08,3126.12
504.803,568.39,1505.49,4069.94,3212.95
505.154,572.47,1497.63,3927.17,3300.62
505.504,572.14,1488.19,3824.04,3391.99
505.855,568.22,1480.22,3742.15,3481.49
506.205,566.36,1470.38,3686.57,3583.83
506.555,563.49,1463.14,3638.82,3689.64
506.906,563.96,1458.42,3600.58,3791.91
507.256,561.04,1453.79,3564.15,3900.67
507.606,559.68,1449.35,3525.51,4012.37
507.956,557.67,1441.72,3495.77,4134.13
508.307,557.51,1429.63,3458.83,4252.57
508.657,558.48,1420.78,3423.46,4377.18
509.007,555.75,1416.17,3388.4,4506.62
509.357,554.18,1412.22,3360.09,4641.11
509.707,554.31,1405.97,3334.64,4779.06
510.057,554.91,1397.94,3299.03,4914.92
510.406,555.64,1392.09,3265.86,5045.81
510.756,552.9,1388.72,3235.24,5193.7
511.106,552.77,1382.8,3204.74,5332
511.456,551.25,1375.17,3175.22,5477.51
511.806,550.54,1365.02,3140.62,5620.01
512.155,549.31,1362.35,3112.91,5770.56
512.505,547.85,1357.69,3089.16,5923.89
512.855,544.76,1351.2,3067.58,6074.32
513.204,545.05,1343.55,3044.39,6239.34
513.554,545.62,1337.92,3024.75,6404.24
513.903,543.17,1334.08,3008.38,6573.51
514.253,540.55,1327.37,2990.93,6758.59
514.602,541.07,1319.43,2977.27,6945.8
514.951,539.07,1311.49,2959.44,7140.88
515.301,539.64,1307.96,2943.18,7337.04
515.65,536.49,1305.29,2930.47,7538.22
515.999,535.82,1298.45,2910.98,7743.85
516.348,534.15,1292.47,2889.98,7950.76
516.697,532.54,1284.3,2866.72,8170.57
517.047,535.01,1278.85,2848.4,8382.58
517.396,534.46,1272.96,2823.45,8593.42
517.745,533.62,1266.67,2801.93,8820.3
518.094,533.46,1263.96,2779.23,9050.02
518.443,532.42,1260.76,2753.88,9284.27
518.791,532.62,1259.46,2734.59,9543.52
519.14,531.08,1256.76,2716.41,9804.56
519.489,530.9,1251.51,2696.39,10076.34
519.838,528.5,1246.92,2679.25,10367.23
520.187,528.74,1242.99,2661.09,10658.48
520.535,527.64,1238.8,2643.44,10979.11
520.884,521.75,1236.24,2624.46,11301.38
521.233,519.94,1232.4,2611.73,11655.62
521.581,519.52,1228.48,2597.85,12008.59
521.93,518.68,1221.9,2583.42,12379.73
522.278,516.34,1216.56,2571.94,12743.09
522.627,515.48,1207.91,2556.26,13112.22
522.975,514.07,1197.94,2540.1,13512.82
523.323,513.27,1193.96,2528.06,13920.84
523.672,513.43,1189.02,2512.37,14335.15
524.02,510.69,1181.19,2498.44,14790.27
524.368,511.13,1177.02,2485.25,15229.82
524.716,512.85,1169.71,2471.66,15713.56
525.064,510.69,1163.89,2451.51,16213.88
525.413,509.1,1159.92,2436.11,16741.47
525.761,508.99,1154,2426.44,17278.09
526.109,509.26,1151.58,2410.49,17836.48
526.457,507.95,1147.74,2401.18,18376.38
526.805,506.37,1145.16,2389.55,18966.57
527.152,507.49,1139.18,2375.54,19557.89
527.5,505.92,1134.52,2361.11,20184.97
527.848,505.81,1132.05,2349.88,20754.22
528.196,505.68,1128.54,2335.62,21368.79
528.544,505.66,1124.83,2320.57,21994.77
528.891,505.13,1121.08,2310.09,22613.47
529.239,503.39,1114.77,2292.92,23241.9
529.587,501.53,1110.89,2277.06,23879.27
529.934,500.52,1102.44,2265.83,24536.47
530.282,498.8,1096.37,2250.89,25227.72
530.629,499.04,1093.1,2238.4,25880.25
530.977,497.01,1090.21,2221.7,26567.55
531.324,498.13,1087.83,2209.43,27250.81
531.671,496.74,1084.96,2195.66,27998.51
532.019,494.1,1080.77,2187.87,28673.14
532.366,491.18,1076.69,2177.76,29373.13
532.713,490.3,1073.55,2167.02,30066.52
533.06,492.02,1070.35,2158.76,30758.26
533.408,493.79,1067.29,2148.7,31454.63
533.755,492.09,1065.81,2137.01,32128.1
534.102,489.55,1063.84,2127.72,32838.77
534.449,490.17,1059.25,2117.24,33523.71
534.796,488.45,1057.02,2111.48,34169.72
535.143,485.98,1049.61,2104.31,34846.14
535.49,487.59,1045.75,2092.66,35505
535.836,488.8,1041.91,2080.12,36196.32
536.183,488.96,1040.03,2074.12,36828.96
536.53,490.3,1035.91,2065.1,37471.05
536.877,488.23,1032.93,2055.41,38100.78
537.223,483.02,1029.49,2044.33,38678.75
537.57,483.02,1024.79,2034.49,39287.83
537.917,483.35,1025.4,2020.74,39839.93
538.263,482.07,1022.32,2007.57,40384.95
538.61,481.72,1016.76,1997.8,40937.66
538.956,480.37,1015.01,1987.91,41380.98
539.303,478.81,1011.35,1979.77,41780.17
539.649,476.6,1008.83,1972.11,42217.11
539.995,475.74,1005.08,1957.75,42631.7
540.342,474.02,1001.68,1950.07,43011.19
540.688,472.25,999.63,1940.4,43369.84
541.034,474.5,997.6,1935.97,43705.59
541.38,474,995.04,1928.2,43963.65
541.726,475.47,988.27,1924.29,44208.78
542.073,474.77,982.73,1920.63,44418.82
542.419,476.11,981.67,1912.31,44610.75
542.765,474.24,978.69,1904.88,44795.37
543.111,472.16,976.73,1897.04,44927.5
543.456,472.08,972.87,1886.98,44973.33
543.802,470.44,970.62,1883.98,44987.23
544.148,469.56,968.59,1871.25,44996.37
544.494,469.6,965.19,1865.64,44903.1
544.84,468.19,961.26,1857.81,44876.49
545.185,465.7,959.63,1850,44769.27
545.531,465.87,957.31,1837.8,44575.69
545.877,464.68,955.02,1828.4,44367.92
546.222,460.93,951,1819.53,44145.8
546.568,461.95,948.33,1812.38,43860.41
546.913,462.54,941.09,1807.55,43613.43
547.259,461.53,938.36,1802.43,43342
547.604,461.29,935.53,1791.08,43014.03
547.95,459.74,931.96,1785.48,42632.03
548.295,458.86,929.11,1773.56,42282.51
548.64,459.19,927.15,1763.94,41832.86
548.985,460.16,923.81,1752.56,41417.74
549.331,456.7,921.17,1743.86,41032.54
549.676,455.35,920.73,1733.4,40592.46
550.021,455.64,917.72,1724.47,40120.5
550.366,454.84,916,1711.82,39693.02
550.711,453.54,917.06,1701.83,39217.79
551.056,452.37,917.86,1693.29,38733.98
551.401,452.61,915.16,1686.36,38261
551.746,453.14,913.91,1678.15,37774.96
552.091,452.88,910.71,1673.74,37286.63
552.436,452.02,905.46,1664.05,36764.71
552.78,449.22,901.4,1658.96,36254.31
553.125,447.05,898.02,1655.12,35752.09
553.47,446.9,893.43,1648.94,35249.53
553.814,446.21,892.11,1644.86,34709.49
554.159,446.24,890.74,1642.05,34164.07
554.504,445.35,887.65,1637.38,33656.5
554.848,445.31,881.71,1632.83,33127.16
555.193,441.27,879.24,1627,32610.76
555.537,439.64,876.17,1621.75,32117.22
555.881,437.74,874.37,1613.61,31612.07
556.226,434.67,874.39,1608.51,31144.23
556.57,437.63,871.17,1601.36,30681.78
556.914,438.91,870.59,1594.17,30174.69
557.258,438.36,869.97,1587.09,29713.16
557.603,436.79,865.56,1579.96,29278.87
557.947,436.15,860.62,1572.48,28825.11
558.291,436.84,858.83,1564.49,28336.89
558.635,435.84,857.79,1555.84,27871.72
558.979,435.27,854.7,1551.43,27452.78
559.323,435.29,852.06,1545.07,26973.78
559.667,435.14,850.03,1538.79,26554.58
560.011,434.96,848.35,1532.23,26096.23
560.354,433.37,848.33,1527.91,25613.65
560.698,432.31,842.83,1520.89,25185.27
561.042,430.61,842.72,1517.32,24720.66
561.386,431.32,842.52,1509.9,24275.41
561.729,431.58,843.1,1503.97,23838.07
562.073,429.95,839.33,1494.54,23404.11
562.417,428.41,839.26,1488.54,22985.68
562.76,431.1,836.9,1481.24,22525.54
563.104,431.01,834.8,1478.59,22105.96
563.447,430.11,831.51,1476.27,21658.25
563.79,432.67,829.53,1474.05,21244.28
564.134,431.36,828.62,1469.39,20851.35
564.477,431.03,829.17,1466.76,20428.02
564.82,432.95,825.6,1462.62,20034.37
565.164,431.23,823.64,1456.55,19614
565.507,427.64,820.9,1452.07,19237.43
565.85,426.82,820.57,1448.29,18876.88
566.193,426.16,815.6,1441.1,18500.26
566.536,423.71,813,1436.33,18130.84
566.879,422.69,809.98,1425.81,17766.27
567.222,421.99,808.41,1421.95,17365.55
567.565,419.01,805.3,1410.74,16983.02
567.908,417.79,802.45,1407.89,16603.72
568.251,417.44,801.81,1401.82,16219.62
568.593,414.48,799.23,1396.44,15824.33
568.936,414.2,794.33,1391.87,15444.36
569.279,414.64,793.08,1386.2,15005.57
569.621,415.08,790.23,1383.27,14556.91
569.964,414.48,786.74,1379.49,14104.82
570.307,415.19,785.29,1371.04,13630.19
570.649,416.07,784.12,1368.55,13142.98
570.992,417.11,782.97,1359.88,12648.84
571.334,416.62,782.2,1358.6,12114.5
571.677,415.45,778.45,1350.7,11569.04
572.019,415.7,772.64,1343.55,11013.23
572.361,416.01,771.27,1336.2,10427.38
572.703,414.79,771.47,1330.86,9809.81
573.046,414.93,769.75,1326.07,9182.84
573.388,412.83,768.87,1322.92,8540.35
573.73,411.7,767.92,1321.11,7885.88
574.072,411.64,768.87,1319.92,7227.62
574.414,410.23,768.01,1313.14,6584.83
574.756,407.82,766.71,1308.16,5967.54
575.098,406.3,764.88,1301.91,5384.65
575.44,405.24,763.97,1297.03,4834.98
575.782,401.16,763.71,1296,4316.06
576.124,401.33,761.85,1291.01,3856.05
576.466,401.07,760.51,1290.24,3449.69
576.807,399.13,757.46,1284.92,3102.31
577.149,398.42,756.38,1280.07,2808.4
577.491,399.77,755.23,1274.06,2564.09
577.832,401.27,753.22,1269.12,2372.87
578.174,399.24,751.57,1269.5,2216.73
578.515,399.26,749.67,1267.75,2094.55
578.857,400.21,745.66,1267.11,1996.85
579.198,400.21,744.22,1262.99,1915.23
579.54,402.41,743.38,1257.98,1853.8
579.881,401.75,741.51,1255.22,1805.76
580.222,402.17,738.49,1248.34,1761.67
580.564,400.96,736.79,1250.01,1724.14
580.905,398.11,734.12,1245.22,1691.99
581.246,397.14,734.6,1239.77,1663.5
581.587,393.99,731.47,1238.32,1638.24
581.928,392.07,730.01,1235.34,1615.64
582.269,392.48,729,1229.54,1594.44
582.61,390.23,729.22,1222.65,1575.02
582.951,391.87,730.28,1219.63,1555.47
583.292,390.85,729.55,1215.39,1534.02
583.633,391.54,727.83,1212.66,1516.12
583.974,391.73,729.04,1212.26,1500.83
584.315,391.38,729.81,1204.71,1486.34
584.655,393.87,728.22,1201.09,1472.5
584.996,392.82,726.39,1200.12,1454.98
585.337,390.63,725.47,1193.22,1440.26
585.677,391.36,722.73,1187.37,1425.37
586.018,390.87,720.59,1185.82,1412.86
586.358,390.74,720.1,1182.51,1399.6
586.699,390.01,717.08,1178.61,1390.33
587.039,388.62,716.44,1174.26,1381.74
587.38,386.64,713.93,1171.04,1369.06
587.72,385,710.88,1166.01,1357.16
588.06,386.5,710.79,1161.29,1349.82
588.4,385.29,710.68,1159.3,1337.77
588.741,385.34,709.07,1157.12,1329.45
589.081,384.83,705.32,1153.5,1320.29
589.421,384.54,702.19,1148.44,1309.41
589.761,380.72,702.8,1144.1,1296.75
590.101,379.8,702.12,1142.38,1287.04
590.441,376.53,698.44,1138.74,1276.49
590.781,377.77,697.22,1135.49,1269.23
591.121,377.1,696.45,1130.26,1261.99
591.461,378.1,697.29,1125.96,1254.89
591.8,375.78,694.09,1122.14,1244.19
592.14,376.11,691.15,1115.5,1235.12
592.48,375.85,688.7,1110.51,1224.75
592.82,377.46,691.02,1109.85,1214.33
593.159,376.13,693.05,1106.25,1207.47
593.499,378.45,691.84,1102.02,1202.24
593.838,378.25,688.73,1100.65,1194.43
594.178,379.86,690.49,1098.27,1185.65
594.517,379.05,687.93,1092.53,1173.67
594.857,379.16,687.03,1089.46,1165.04
595.196,376.97,684.51,1086.22,1156.52
595.535,376.95,681.71,1086.68,1150.61
595.875,375.23,679.11,1085.29,1145.47
596.214,375.6,676.99,1079.53,1140.32
596.553,373.64,674.1,1075.03,1133.84
596.892,373.91,671.05,1070.75,1127.57
597.231,373.6,668.16,1067.07,1118.74
597.57,375.78,665.82,1062.15,1111.97
597.909,375.94,660.04,1056.17,1105.39
598.248,375.54,657.55,1056.45,1101.09
598.587,373.99,657.26,1055.35,1096.5
598.926,373.44,654.35,1052.19,1088.93
599.265,371.83,654.41,1048.38,1081.01
599.604,370.11,654.08,1043.12,1074.83
599.942,369.27,654.64,1040.98,1068.61
600.281,368.9,652.3,1035.47,1063.73
600.62,369.23,650.71,1032.62,1056.47
600.958,367.11,647.33,1029.69,1049.83
601.297,363.23,647.29,1023.88,1041.4
601.635,361.68,647.53,1019.69,1035.31
601.974,359.14,644.33,1014.59,1031.32
602.312,358.08,641.79,1008.79,1024.94
602.651,358.97,641.79,1004.49,1022.14
602.989,360.22,639.54,997.93,1015.87
603.327,361.9,639.32,996.19,1011
603.665,360.78,636.7,992.35,1006.21
604.004,360.25,635.17,990.67,1002.55
604.342,360.29,634.82,986.79,998.4
604.68,361.61,634.64,984.81,994.71
605.018,363.2,635.04,982.09,991.56
605.356,363.93,636.23,980.33,986.97
605.694,365.19,636.59,977.92,979.44
606.032,363.95,635.88,974.43,973.75
606.37,361.42,633.98,971.19,968.48
606.708,360.95,632.86,966.73,964.97
607.045,361.28,630.3,961.7,958.55
607.383,361,629.81,957.66,952.04
607.721,360.91,628.75,952.52,944.76
608.058,360.51,626.28,947.6,939.15
608.396,360.09,624.05,941.07,934.01
608.734,359.67,621.1,937.83,928.34
609.071,357.09,620.12,931.05,921.59
609.409,355.63,616.77,927.46,920.02
609.746,356.65,613.35,923.35,916.03
610.083,355.19,612.76,920.33,914.24
610.421,354.91,610.11,918.19,909.96
610.758,354.6,607.9,915.3,904.4
611.095,355.35,603.77,912.78,898.13
611.433,355.08,605.03,912.76,895.51
611.77,353.08,604.46,911.24,889.44
612.107,352.68,604.88,911,885.66
612.444,351.4,602.47,907.99,883.46
612.781,351.22,599.32,909.1,880.96
613.118,350.74,602.27,906.08,872.36
613.455,350.12,605.03,904.09,869.25
613.792,350.07,604.15,901.51,863.69
614.129,349.43,604.79,899.83,859.23
614.465,347.71,604.86,897.89,857.8
614.802,346.65,605.21,894.91,855.35
615.139,343.87,602.52,890.28,849.81
615.475,341.95,600.82,889.7,847.38
615.812,340.9,598.39,884.36,845.26
616.149,339.53,597.88,881.49,842.57
616.485,339.13,596.27,878.69,840.1
616.822,340.96,594.46,876.95,839.81
617.158,339.02,589.03,874.43,837.05
617.494,339.73,586.74,870.33,830.65
617.831,338.29,586.59,867.37,827.28
618.167,339.09,585.64,866.11,825.49
618.503,337.01,585.95,866.31,824.94
618.84,338.47,585.31,863.91,823.09
619.176,337.98,585,861.26,821.17
619.512,338.98,585.99,860.69,818.08
619.848,339.9,584.93,858.55,814.57
620.184,339.22,585.53,856.71,811.04
620.52,338.53,585.35,853.34,809.96
620.856,339.26,587.05,850.18,805.39
621.192,338.95,585.55,851.22,803.45
621.528,340.28,582.88,852.21,803.18
621.863,338.98,581.09,851.53,802.37
622.199,338.14,579.81,847.6,799.17
622.535,338.82,579.02,845.7,800.05
622.87,340.03,578.24,844.25,798.68
623.206,338.84,575.6,841.29,796.12
623.542,340.3,574.49,841.64,793.76
623.877,340.96,572.24,840.28,792.22
624.213,338.11,570.5,840.43,789.79
624.548,337.41,568.38,840.85,790.16
624.883,336.17,568.36,836.94,789.08
625.219,335.62,565.38,833.06,783.54
625.554,338.03,565.29,830.19,778.29
625.889,338.67,563.37,829.31,775.09
626.225,337.25,561.61,828.29,769.33
626.56,338.03,562.38,828.74,765.16
626.895,338.18,561.76,826.68,763.22
627.23,336.55,560.46,822.49,760.38
627.565,335.64,558.63,817.94,755.34
627.9,336.77,556.95,815.36,752.3
628.235,337.76,556.4,815.5,745.72
628.57,338.91,554.52,813.09,741.82
628.904,337.45,556.16,811.55,742.33
629.239,335.29,555.63,808.15,738.4
629.574,335.25,554.66,807.86,738.93
629.909,333.13,553.33,804.22,735.93
630.243,331.96,549.16,800.01,734.27
630.578,331.61,549.23,798.28,730.76
630.912,330.92,548.7,796.54,726.02
631.247,330.99,548.24,798.28,725.2
631.581,330.72,547.24,795.81,719.42
631.916,330.61,547.93,792.59,717.81
632.25,331.27,547.44,792.28,718.23
632.585,333.86,546.78,789.04,713.68
632.919,331.96,545.7,787.8,711.35
633.253,332.31,543.89,785.42,707.97
633.587,334.87,541.26,784.82,707.88
633.921,335.31,541.48,781.78,705.21
634.256,333.33,538.46,782.71,704.11
634.59,330.79,539.23,780.3,702.59
634.924,330.52,538.66,776.57,700.09
635.258,330.83,535.24,775.62,700.82
635.591,331.1,532.57,772.45,702.01
635.925,330.44,531.18,769.95,697.4
636.259,330.17,531.97,770.33,697
636.593,330.61,531,769.82,697.09
636.927,329.62,531.11,768.19,693.56
637.26,330.08,530.25,765.78,692.5
637.594,329.05,529.35,767.3,690.94
637.928,330.68,528.71,765.54,688.99
638.261,332.14,525,764.9,690.58
638.595,331.32,524.01,766.22,690.38
638.928,330.66,525.49,765.1,687.93
639.261,328.74,526.24,762.03,685.18
639.595,329.53,525.07,760.99,684.8
639.928,326.6,518.93,760.09,680.81
640.261,326.38,518.23,758.7,678.36
640.595,326.95,517.81,757.2,678.34
640.928,325.87,517.32,755.9,674.21
641.261,325.85,517.03,749.83,673.22
641.594,326.09,515.36,747.84,672.95
641.927,326.16,513.94,745.97,672.69
642.26,328.65,512.18,744.2,671.23
642.593,329.4,511.36,742.15,668.23
642.926,330.46,508.43,742.33,667.44
643.259,329.97,507.19,742.11,667.48
643.591,331.87,508.91,740.76,667.17
643.924,332.2,506.53,737.07,665.93
644.257,333.06,503.11,736.13,663.46
644.589,332.29,502.1,736.13,663.46
644.922,332.33,499.16,737.56,662.54
645.255,331.36,499.49,737.34,659.12
645.587,329.44,500.97,737.69,657.28
645.92,327.66,498.85,734.69,656.62
646.252,326.86,497.29,734.38,656.51
646.584,325.34,495.94,734.29,655.74
646.917,324.17,495.1,733.39,653.25
647.249,323.55,493.71,732.24,652.1
647.581,324.43,493.05,731.45,650.38
647.913,323.73,494.48,731.4,651.42
648.246,323.77,493.18,728.95,650.31
648.578,322.87,493.05,728.01,648.79
648.91,322.47,491.55,724.81,647.62
649.242,322.98,489.23,722.71,644.53
649.574,322.67,489.5,722.2,644.22
649.906,323.86,488.15,720.64,643.71
650.237,324.3,489.56,718.67,639.9
650.569,324.41,489.19,713.35,636.59
650.901,323.15,487.86,710.18,634.67
651.233,323.55,486.78,710.42,633.78
651.564,323.51,485.22,706.98,630.83
651.896,324.15,483.78,707.22,627.5
652.228,324.19,484.24,706.67,623.55
652.559,323.26,482.94,704.13,620.74
652.891,322.96,481.22,706.01,618.65
653.222,322.14,479.72,703.64,615.58
653.554,321.1,476.94,702.17,614.5
653.885,320.88,474.07,701.66,614.63
654.216,321.61,472.35,703.07,612.69
654.547,321.81,471.23,701.13,612.07
654.879,321.37,470.63,699.78,611.04
655.21,320.22,468.22,695.63,609.18
655.541,320.55,467.72,692.41,608.85
655.872,321.21,465.38,688.24,608.85
656.203,321.57,467.28,689.59,608.28
656.534,323.71,466.28,685,607
656.865,323.97,465.64,682.04,605.89
657.196,324.77,465.82,680.85,604.75
657.527,325.21,464.78,678.93,603.69
657.857,324.61,463.99,676.37,602.98
658.188,325.65,463.75,675.18,602.28
658.519,324.63,463.19,671.61,601.33
658.849,325.18,463.3,672.93,600.49
659.18,323.04,462.05,672.6,598.33
659.511,322.78,460.74,672.44,597.86
659.841,324.06,457.13,669.73,598.26
660.171,323.33,457.21,669,598.35
660.502,323.35,458.76,669.51,597.09
660.832,322.27,460.28,667.39,594.42
661.163,323.82,459.24,666.99,592.88
661.493,322.8,458.43,667.32,591.07
661.823,322.89,455.6,667.88,589.3
662.153,322.4,455.18,666.35,586.72
662.483,322.58,455.78,665.34,586.37
662.813,323.37,457.9,664.61,585.73
663.143,322.87,458.6,662.1,584.73
663.473,322.32,457.15,658.74,580.72
663.803,322.43,455.98,658.15,579.24
664.133,322.91,452.6,656.16,578.25
664.463,322.8,451.21,654.77,579.83
664.793,320.86,450.62,654.04,578.33
665.123,320.97,448.98,652.58,579.77
665.452,321.61,448.54,649.85,577.96
665.782,320.9,448.12,648.68,577.1
666.111,319.36,446.31,646.47,576.7
666.441,317.37,444.99,643.16,578.09
666.77,314.77,442.96,643.63,575.97
667.1,313.78,445.74,645.33,578.82
667.429,313.34,444.22,643.91,576.94
667.759,312.78,443.18,641.02,575.93
668.088,311.97,442.5,638.37,575.11
668.417,312.96,442.41,635.57,574.49
668.746,313.49,443.11,631.2,574.03
669.076,310.84,442.39,630.17,574.52
669.405,311.02,440.05,631.58,575.66
669.734,312.5,438.22,630.48,574.1
670.063,313.47,435.57,629.75,572.29
670.392,316.87,434.22,627.67,572.66
670.721,317.42,432.19,625.95,572.29
671.05,318.3,431.82,623.61,572.69
671.378,316.64,432.5,627.36,570.7
671.707,314.88,431.2,625.05,570.57
672.036,314.28,426.23,624.98,571.16
672.365,314.46,424.18,626.81,571.78
672.693,315.45,425.35,624.65,569.46
673.022,314.35,424.69,622.31,564.54
673.35,315.12,424.45,621.6,560.13
673.679,315.63,422.95,619.75,558.85
674.007,315.56,423.23,619.88,557.53
674.336,313.97,421.67,619.24,556.42
674.664,312.32,418.82,619.44,556.07
674.992,314.31,416.48,616.55,555.43
675.321,315.54,414.91,618.18,551.44
675.649,313.91,416.66,615.76,550.18
675.977,311.88,416.48,614.26,547.11
676.305,311.86,413.08,613.4,547.95
676.633,313.78,411.8,611.01,551.02
676.961,311.04,409.88,608.63,552.25
677.289,310.18,409.51,610.02,553.75
677.617,308.06,408.27,610.31,553.53
677.945,308.44,407.08,609.23,550.4
678.273,308.44,408.65,606.25,549.07
678.601,306.76,410.7,604.33,547.07
678.928,308.57,408.85,603.73,547.46
679.256,308.99,410.21,604.77,545.74
679.584,308.99,409.6,603.84,546.8
679.911,308.61,412.09,603.6,546.25
680.239,307.84,411.85,603.47,544.33
680.566,309.08,413.79,603.75,544.29
680.894,309.3,413.1,601,541.51
681.221,309.74,411.67,596.69,541.73
681.549,310.64,411.01,596.41,542.08
681.876,310.44,409.55,596.25,541.55
682.203,311.94,405.71,595.61,541.97
682.53,310.55,408.12,593.93,540.4
682.857,311.83,408.47,593.91,538.64
683.185,313.14,407.17,592.7,535.44
683.512,311.66,404.76,590.82,534.95
683.839,309.56,403.7,590.51,534.4
684.166,310.29,400.09,588.18,533.06
684.492,310.05,400.48,588.84,530.76
684.819,310.4,398.52,588.88,529.48
685.146,310,397.64,585.88,527.3
685.473,310.49,396.2,588,524.85
685.8,309.83,395.87,586.56,525.11
686.126,310.49,394.48,586.5,524.63
686.453,310.09,391.92,583.65,523.52
686.779,309.58,392.05,584.51,523.43
687.106,312.01,391.7,585.48,521.56
687.432,314.61,393.14,585.28,520.92
687.759,313.45,394.35,585.15,519.35
688.085,313.27,393.42,585.15,520.72
688.412,311.97,393.89,585.46,517.68
688.738,310.33,392.98,586.3,517.19
689.064,308.94,394.97,582,519.66
689.39,309.41,397.17,583.03,519.75
689.716,309.08,395.7,580.74,519.93
690.042,309.05,395.17,578.53,520.06
690.369,309.43,394.75,576.41,518.82
690.694,307.86,394.53,574.74,518.07
691.02,306.8,394.77,573.88,516.44
691.346,307.58,394.81,574.43,518.96
691.672,309.14,393.86,573.19,518.56
691.998,311.08,394.24,570.79,519.44
692.324,311.72,394.81,571.78,520.65
692.649,312.14,394.13,573.33,516.57
692.975,312.39,391.77,571.98,514.37
693.301,313.31,391.86,572.09,512.11
693.626,312.94,390.22,569.95,510.15
693.952,312.58,389.43,569.55,509.97
694.277,311.86,388.52,570.5,508.81
694.603,310.36,386.18,569.51,508.43
694.928,308.5,386.82,566.33,506.93
695.253,306.89,387.31,564.12,504.61
695.578,305.39,386.65,563.81,503.18
695.904,306.83,385.57,561.08,501.61
696.229,307.02,385.17,558.3,500.82
696.554,307.13,387.29,554.9,499.98
696.879,304.86,386.89,553.84,500.97
697.204,305.59,385.9,554.48,502.63
697.529,305.57,384.53,552.83,502.67
697.854,305.46,383.85,549.16,501.48
698.179,307.29,383.05,548.61,502.6
698.504,309.16,378.81,548.81,500.11
698.828,311.39,378.11,548.26,501.81
699.153,313.62,376.56,549.54,501.26
699.478,314.15,377.03,548.46,499.56
699.802,316.34,374.64,547.24,501.13
700.127,314.88,372.75,548.77,502.94
700.451,315.5,371.44,548.21,501.68
700.776,313.6,371.64,546.78,497.95
701.1,313.86,371.38,547.07,497.51
701.425,315.01,372.42,547.95,496.96
701.749,315.52,372.15,545.39,494.99
702.073,315.23,373.74,545.1,494.13
702.398,312.06,373.87,545.17,491.33
702.722,312.52,375.37,543.51,493.4
703.046,313.49,372.11,541.88,493.01
703.37,313.11,372.04,543.85,492.17
703.694,312.94,370.23,541.42,490.4
704.018,311.46,368.38,541.15,489.63
704.342,313.82,368.18,541.59,490.53
704.666,314.44,369.11,538.15,490.98
704.99,314.24,369.33,533.56,490.98
705.313,312.43,369.48,534.67,488.33
705.637,310.78,369.19,532.61,488.09
705.961,313.11,368.51,529.97,486.85
706.284,311.81,365.55,528.64,484.03
706.608,310.49,367.05,530.3,484.33
706.932,309.8,367.38,527.01,484.09
707.255,309.91,368.22,527.87,480.89
707.579,311.99,368.33,525.84,480.14
707.902,311.42,367.8,524.36,480.63
708.225,311.55,365.86,524.07,479.04
708.549,311.22,364.54,526.04,478.86
708.872,314.42,361.16,525.05,479.59
709.195,317.33,361.49,526.17,479.35
709.518,316.2,360.24,524.85,478.73
709.841,316.4,362.53,524.87,476.94
710.164,315.03,362.22,521.12,477.12
710.487,314.09,361.07,519.31,477.36
710.81,312.85,360.43,517.26,479.3
711.133,313.53,360.79,519.75,477.49
711.456,312.43,362.8,517.79,476.66
711.779,311.53,364.19,517.5,475.79
712.101,311.92,362.57,516.7,474.93
712.424,308.97,365.4,514.59,475.15
712.747,308.02,364.3,515.07,473.37
713.069,308.83,364.98,515.23,472.86
713.392,306.56,363.81,514.39,471.91
713.714,305.44,363.61,515.09,469.51
714.037,305.21,363.61,515.16,466.15
714.359,307.82,363.46,513.95,463.26
714.682,306.54,363.3,512.4,465.12
715.004,307.4,361.58,514.43,461.92
715.326,304.8,359.24,515.09,460.04
715.648,303.69,358.14,511.87,460.3
715.971,303.69,355.49,510,458.76
716.293,303.67,355.84,506.89,461.19
716.615,304.09,354.65,507.04,461.03
716.937,304.99,354.76,505.78,459.84
717.259,308.57,353.62,503.99,459.53
717.581,308.99,353.4,503.73,460.64
717.902,308.52,351.81,504.61,461.58
718.224,309.19,350.97,503.22,460.7
718.546,309.63,352.45,500.27,463.33
718.868,310.95,353.7,498.72,463.31
719.189,313.58,354.37,500.71,463.57
719.511,314.55,356.9,502.8,465.87
719.833,312.12,356.11,503.22,464.45
720.154,310.33,357.87,502.54,463.15
720.475,311.83,357.74,499.98,468.14
720.797,310.93,357.81,499.23,469.24
721.118,309.47,360.3,497.29,467.94
721.44,308.39,360.15,497.53,467.39
721.761,307.73,359.46,494.18,466.86
722.082,306.76,356.53,493.78,467.65
722.403,306.61,356.02,492.19,467.87
722.724,304.22,353.68,490.42,465.73
723.045,305.48,351.65,488.02,465.47
723.366,307.2,350.97,486.01,467.21
723.687,305.83,349.75,485.72,466.24
724.008,305.55,350.31,483.39,461.43
724.329,304.69,350.5,482.77,460.26
724.65,305.88,349.2,482.9,458.67
724.971,306.25,350.09,478.62,458.67
725.291,304.11,352.12,477.14,457.68
725.612,303.65,352.03,477.32,456.2
725.933,304.55,351.37,476.59,457.13
726.253,305.08,353.57,478.22,457.79
726.574,303.18,353.86,476.46,455.56
726.894,302.92,354.92,473.92,452.87
727.214,306.3,354.01,469.04,454.08
727.535,305.46,351.59,469.97,457.37
727.855,304.49,351.1,470.23,457.75
728.175,304.69,350.48,468.4,459.38
728.496,305.1,349.31,467.87,460.88
728.816,306.08,348.78,468.14,459.8
729.136,303.65,348.65,463.72,458.25
729.456,303.89,348.52,465.27,457.37
729.776,303.54,348.52,463.5,458.74
730.096,302.72,347.59,463.24,458.03
730.416,301.11,344.99,464.83,457.3
730.736,301.07,345.94,466.79,455.16
731.055,301.49,346.4,467.41,452.78
731.375,300.56,345.43,462.64,451.88
731.695,300.6,345.19,462.64,451.88
732.014,298.29,346.36,464.48,450.09
732.334,298.51,345.74,465.14,449.8
732.654,299.28,345.92,467.5,448.87
732.973,299.52,346.91,464.72,448.76
733.293,299.28,346.82,463.26,447.37
733.612,298.51,345.5,463.22,446.87
733.931,297.43,346.47,461.69,447.44
734.251,296.5,345.67,462.22,449.29
734.57,295.79,345.58,460.39,450.31
734.889,296.52,347.95,462.73,448.39
735.208,295.79,347.59,462.82,444.77
735.527,297.12,346.25,459.62,442.28
735.846,297.69,347.13,456.84,443.25
736.165,298.18,348.41,454.77,443.42
736.484,295.24,347.11,454.99,441.88
736.803,294.98,346.07,455.16,441.02
737.122,294.93,346.71,456.24,440.47
737.441,297.09,345.85,456.33,438.35
737.759,296.87,344.02,454.92,436.8
738.078,298.31,345.14,454.88,435.55
738.397,299.76,342.54,454.28,436.96
738.715,298.26,340.93,454.88,439.06
739.034,297.73,337.95,457.11,439.36
739.352,294.47,333.98,458.87,436.74
739.671,294.45,331.79,461.14,436.72
739.989,295.24,333.78,458.21,435.7
740.308,292.95,334.64,456.82,433.78
740.626,294.95,336.36,453.53,431.44
740.944,293.7,336.58,451.68,432.04
741.262,292.68,339.1,451.9,431.33
741.58,292.2,337.71,450.11,431.24
741.898,293.32,337.2,448.9,430.58
742.216,294.58,338.52,448.41,428.55
742.534,293.81,340.13,445.15,428.49
742.852,297.01,343.27,443.71,429.39
743.17,298.82,343.71,441.5,429.61
743.488,301.62,341.61,441.97,429.9
743.806,303.94,339.32,441.2,429.26
744.124,301.29,338.19,441.62,430.41
744.441,302.68,337.49,441.92,430.71
744.759,301.97,334.75,440.95,431.33
745.076,299.48,334.73,441.57,428.82
745.394,295.9,336.38,441.68,427.69
745.711,294.56,334.99,440.34,429.17
746.029,297.65,334.79,441.55,427.76
746.346,297.76,332.81,441.44,426.65
746.663,296.52,332.96,440.64,425
746.981,294.12,331.84,439.98,424.43
747.298,293.94,335.28,439.25,425.22
747.615,296.19,334.77,437.58,424.85
747.932,295.15,333.12,436.89,422.22
748.249,297.56,333.56,436.63,420.39
748.566,298.37,331.42,435.61,422.11
748.883,299.41,328.44,433.14,421.98
749.2,300.6,329.12,431.29,419.88
749.517,299.26,330.07,428.29,421.07
749.834,300.12,330.34,428.73,421.03
750.15,299.46,330.34,428.42,419.79
750.467,301.04,330.8,429.06,417.74
750.784,302.79,327.53,429.46,415.91
751.1,301.27,329.26,428.18,415.53
751.417,300.67,330.4,427.76,415.31
751.733,299.28,330.91,424.23,416.55
752.05,301.13,335.08,422.42,414.28
752.366,301.42,338.39,424.85,411.87
752.683,301.95,338.28,425.22,413.42
752.999,300.58,337.42,425.97,412.62
753.315,298.57,338.61,423.46,412.64
753.631,300.82,337.42,423.65,412.95
753.947,298.6,337.79,422.13,414.41
754.264,296.7,338.77,420.96,415.18
754.58,298.26,336.14,423.7,414.65
754.896,299.01,338.13,422.59,412.91
755.211,298.99,336.76,424.4,412.51
755.527,296.98,334.29,426.01,411.8
755.843,297.78,334.02,423.98,412.8
756.159,297.18,333.23,422.86,410.52
756.475,298.53,332.98,422.66,409.38
756.79,298.84,333.49,421.89,410.41
757.106,297.54,333.8,420.79,409.86
757.422,299.19,334.84,417.92,409.27
757.737,298.02,334.24,416.46,407.5
758.053,297.21,334.04,415.45,406.77
758.368,298.29,333.25,415.38,408.23
758.683,297.29,333.49,414.63,407.48
758.999,296.34,332.94,413.75,406.97
759.314,295.09,330.54,411.8,405.34
759.629,295.11,330.12,409.36,403.64
759.944,294.36,331.46,407.9,404.17
760.259,296.52,328.81,406.22,402.89
760.574,295.97,328.88,404.48,402.03
760.889,294.73,327.47,406.42,400.62
761.204,295.29,328.7,406.57,401.24
761.519,295.66,329.96,403.62,400.53
761.834,295.59,329.37,402.36,399.96
762.149,297.67,330.31,401.01,397.06
762.464,298.2,330.36,400.31,399.18
762.778,300.34,332.87,399.71,398.39
763.093,302.04,334.51,399.51,398.65
763.407,302.77,331.46,399.12,399.34
763.722,301.09,331.62,400.75,397.7
764.036,302.52,331.75,400.33,396.8
764.351,301.91,331.31,398.81,398.08
764.665,301.38,329.54,397.93,397.73
764.98,301.38,327.98,398.23,398.41
765.294,299.74,328.42,398.28,398.52
765.608,299.81,327.58,398.1,398.92
765.922,299.57,328.04,397.48,397.55
766.236,299.01,325.33,398.5,399.27
766.55,297.12,325.7,399.87,399.73
766.864,296.85,327.91,399.84,398.68
767.178,296.5,328.9,397.31,400.07
767.492,294.07,327.29,399.18,402.27
767.806,295.42,327.31,400.4,400.97
768.12,296.19,326.81,400.24,400.82
768.434,297.43,327.45,398.26,400.29
768.747,298.51,327.53,396.14,400.04
769.061,299.26,327.4,394.02,402.18
769.375,302.04,326.41,391.84,400.44
769.688,300.98,325.11,390.38,399.05
770.002,302.37,323.83,389.45,399.43
770.315,303.16,322.68,389.47,394.99
770.629,303.38,321.31,389.89,391.75
770.942,305.28,321.93,385.88,391.86
771.255,303.54,321.8,383.63,389.21
771.568,303.14,321.84,382.26,388.83
771.882,302.32,320.61,385.39,387.84
772.195,301.84,320.16,386.45,385.9
772.508,299.81,320.12,386.12,384.44
772.821,298.82,319.28,385.52,383.34
773.134,299.41,321.05,386.05,383.63
773.447,298.18,320.5,384.99,381.46
773.76,297.91,320.3,384.93,385.46
774.072,297.25,320.65,384.88,385.83
774.385,295.2,322.33,385.55,385.39
774.698,298,321.6,387.22,388.08
775.01,299.81,322.68,386.32,389.34
775.323,299.54,325.11,384.51,390.62
775.636,299.12,323.78,383.14,393.53
775.948,299.37,324.31,386.3,393.95
776.261,300.14,326.74,387.6,393.07
776.573,298.57,327.49,386.5,391.68
776.885,298.93,327.51,384.91,393.16
777.198,299.5,327.31,382.28,391.97
777.51,302.1,327.98,381.2,391.42
777.822,305.17,325.42,380.67,391.57
778.134,303.45,326.92,378.53,392.47
778.446,300.29,325.9,376.79,389.47
778.758,299.46,323.72,375.57,386.74
779.07,300.32,324.33,375.33,384.66
779.382,301.49,324.27,371.2,382.68
779.694,300.89,322.83,369.92,385.35
780.006,302.46,321.93,369.15,387.42
780.318,301.99,323.58,370.12,386.54
780.629,301.62,325.11,370.12,388.11
780.941,299.9,325.86,369.24,389.65
781.253,298.18,326.92,368.69,388.46
781.564,298.73,324.75,369.84,388.15
781.876,301.24,325.95,371.05,388.41
782.187,300.8,326.5,371.98,389.78
782.498,298.42,326.12,370.59,390.51
782.81,296.04,324.6,373.12,391.26
783.121,296.01,322.81,373.15,389.45
783.432,296.59,324.2,373.79,387.51
783.743,297.16,323.39,374.29,388.24
784.055,297.18,323.47,373.67,386.63
784.366,295.84,320.69,371.42,385.57
784.677,294.87,318.8,372.51,384.24
784.988,295.18,319.11,371.58,380.49
785.299,294.23,318.53,370.61,381.4
785.609,295.66,319.44,368.62,381.68
785.92,298.99,319.52,369.88,379.85
786.231,301.09,321.91,367.28,380.21
786.542,301.15,323.56,365.11,380.52
786.852,300.03,321.38,364.36,381.91
787.163,300.05,320.61,362.42,380.67
787.474,299.46,318.95,362,380.32
787.784,301.22,320.5,365.97,380.21
788.094,302.7,321.09,364.52,380.98
788.405,303.78,320.1,363.97,382.06
788.715,305.39,319.24,365.95,379.83
789.025,305.13,318.05,365.53,378.73
789.336,304.33,318.58,363.99,379.06
789.646,302.81,316.59,363.11,378.97
789.956,299.92,318.95,364.21,379.77
790.266,298.53,317.6,363.59,379.19
790.576,297.65,316.66,363.39,381.13
790.886,298.64,314.07,363.72,380.76
791.196,297.62,312.2,362.22,382.13
791.506,297.27,312.31,361.58,381.16
791.816,295.95,315.35,359.62,382.19
792.125,293.28,315.53,357.74,382.35
792.435,293.32,316.06,357.48,384.29
792.745,293.15,316.77,357.41,383.91
793.054,295.46,317.08,359.09,385.94
793.364,296.34,314.12,358.54,386.34
793.673,297.56,314.05,357.96,385.33
793.983,299.35,312.84,359.53,382.35
794.292,298.73,316.77,358.47,381.66
794.602,300.27,319.33,355.67,380.41
794.911,300.71,320.61,355.49,380.82
795.22,301.11,318.6,356.49,379.81
795.529,303.96,318.2,356.53,380.76
795.838,303.54,318.07,355.45,378.57
796.147,303.1,315.93,355.93,379.46
796.456,300.12,314.56,356.46,376.28
796.765,298.9,313.13,355.56,374.87
797.074,298.2,313.68,354.46,375.66
797.383,296.87,314.85,353.22,376.19
797.692,296.34,314.74,353.22,376.81
798.001,295.48,312.88,353.35,377.4
798.309,295.81,312.95,352.89,377.38
798.618,294.71,312.95,350.37,376.85
798.926,293.1,312.66,349.31,378.31
799.235,294.23,310.7,349.51,377.71
799.543,292.24,310.21,349.27,375.77
799.852,292.22,312.93,346.58,376.26
800.16,295.64,314.47,345.72,375.4
800.469,295.95,315.44,346.25,375.75
800.777,297.51,316.63,345.12,374.45
801.085,298.6,315.22,345.52,374.4
801.393,298.13,314.91,344,372.62
801.701,297.27,313.39,343.73,371.38
802.009,298,314.74,346.29,372.95
802.317,298.04,316.46,345.67,370.32
802.625,297.38,318.24,344.88,368.73
802.933,300.14,319.17,344.61,368.53
803.241,301.55,315.62,345.74,369.11
803.549,301.44,317.83,346.34,369.99
803.856,300.07,318.42,347.33,367.43
804.164,297.71,317.36,347.64,369.5
804.472,296.23,318.8,348.08,370.52
804.779,296.63,319.79,351.52,369.46
805.087,295.75,318.47,351.52,370.41
805.394,297.4,317.36,348.41,369.31
805.702,298.86,315.57,349.01,370.43
806.009,298.2,316.66,348.01,372.31
806.316,297.89,317.58,346.05,372.99
806.624,299.24,319.72,344.28,373.87
806.931,298.44,318.11,344.75,371.89
807.238,299.65,317.38,345.67,371.16
807.545,300.67,317.76,344.13,370.48
807.852,298.62,317.01,340.51,367.87
808.159,297.56,316.92,340.02,369.5
808.466,298.86,318.55,339.98,369.7
808.773,295.64,318.53,340.66,368.6
809.08,295.62,319.9,340.4,368.09
809.386,296.9,317.16,340.8,367.03
809.693,299.06,315.27,342.87,366.37
810,298.51,315.07,342.05,363.61
810.306,298.26,315.05,340.69,364.98
810.613,299.12,314.38,338.92,364.91
810.919,298.31,313.88,340.91,365.69
811.226,300.47,312.86,341.59,366.42
811.532,301.4,314.16,341.48,364.65
811.838,303.67,313.59,341.81,364.41
812.145,305.17,316.3,342.98,365.78
812.451,305.52,314.52,342.69,365.22
812.757,305.81,314.85,342.01,364.98
813.063,302.52,314.74,338.88,365.44
813.369,302.04,314.67,340.71,366.53
813.675,303.05,314.74,342.03,366.7
813.981,303.16,315,341.37,368.49
814.287,304.66,313.99,341.42,366.19
814.593,304.77,315.27,343.97,365.29
814.899,305.19,314.18,341.26,366.57
815.204,301.33,314.78,341.22,365.07
815.51,302.5,309.75,339.83,364.1
815.816,299.43,308.6,341.11,364.72
816.121,296.72,309.35,341.92,364.63
816.427,297.09,309.57,344.9,363.9
816.732,296.39,308.84,343.47,360.04
817.038,296.48,305.58,342.63,358.36
817.343,295.42,304.52,340.8,357.61
817.648,294.12,305.6,338.59,357.41
817.953,292.53,306.15,336.38,359.11
818.259,289.92,303.92,338.9,356.27
818.564,292.02,302.6,338.63,355.78
818.869,291.67,305.47,339.47,355.32
819.174,291.8,307.37,336.76,356.13
819.479,294.31,307.76,334.88,357.15
819.784,294.36,308.71,334.02,355.89
820.089,294.8,309.09,332.68,358.3
820.393,291.6,310.79,332.63,360.24
820.698,290.41,312,334.35,359.91
821.003,291.2,311.07,336.58,360.7
821.307,293.81,308.65,336.23,360.5
821.612,296.19,311.29,335.52,361.41
821.917,294.67,313.9,335.96,361.41
822.221,292.64,313.15,334.73,360.77
822.525,294.27,312.62,336.08,359.22
822.83,294.25,313.63,337.02,360.04
823.134,294.12,312.53,337.49,362.69
823.438,293.39,311.54,337.88,362.36
823.743,295.79,312.38,337.24,360.55
824.047,296.15,312.18,337.29,361.69
824.351,297.82,312.42,333.74,361.41
824.655,297.8,312.6,335.39,357.96
824.959,297.12,310.21,334.82,358.03
825.263,297.98,310.15,333.36,358.63
825.567,299.04,310.15,333.47,356.2
825.87,298,309.59,331.11,355.6
826.174,296.72,308.73,331.88,355.54
826.478,296.81,308.73,329.63,352.85
826.782,296.61,309.48,330.25,352.12
827.085,294.98,308.98,329.96,352.67
827.389,297.87,309.11,329.26,350.77
827.692,296.52,309.31,328.82,350.75
827.996,296.98,310.08,329.1,353.77
828.299,298.18,310.3,329.35,355.36
828.602,297.87,309.13,328.66,355.03
828.906,296.08,308.07,329.54,357.94
829.209,296.5,309.07,331.04,355.71
829.512,298,308.09,330.67,353.68
829.815,297.6,309.35,331.24,354.57
830.118,297.16,310.19,331.51,354.57
830.421,298.04,310.92,333.85,353.31
830.724,296.04,312.18,332.92,353.6
831.027,294.93,312.84,335.06,352.6
831.33,292.79,313.24,333.1,350.18
831.633,292.62,314.89,330.67,346.47
831.935,292.66,313.32,331.71,345.94
832.238,292.68,315.24,331.2,344.66
832.541,293.96,314.45,331.42,344.5
832.843,293.28,313.43,331.71,343.4
833.146,292.9,312.71,331.95,341.97
833.448,293.52,312.09,332.54,340.95
833.75,293.3,311.27,329.59,340.29
834.053,292.7,310.17,330.4,339.76
834.355,293.34,309.18,328.24,340.36
834.657,293.76,309.11,328.4,340.86
834.959,293.06,308.49,332.13,341.79
835.262,294.84,308.58,332.04,342.17
835.564,296.85,307.79,332.46,342.28
835.866,294.87,309.46,331.04,344.22
836.168,294.71,311.67,331.26,344.11
836.469,296.01,311.4,331,342.85
836.771,295.15,309.99,330.07,343.84
837.073,294.76,308.58,329.87,343.73
837.375,293.74,307.94,328.42,342.54
837.676,294.31,307.41,329.94,342.92
837.978,293.5,306.04,331.02,342.45
838.28,294.65,305.49,329.21,343.69
838.581,292.42,306.17,327.14,343.95
838.883,291.82,305.23,326.96,344.59
839.184,292.28,304.23,326.96,345.17
839.485,291.64,302.29,325.24,344.64
839.787,291.47,300.46,325.33,347.13
840.088,293.08,301.39,325.84,346.73
840.389,292.66,303,326.85,346.23
840.69,295.97,304.39,326.87,347.55
840.991,295.51,306.55,325.24,346.31
841.292,297.78,307.87,323.23,346.34
841.593,296.01,309.86,322.68,345.19
841.894,294.56,310.37,325.44,340.6
842.195,293.43,310.32,325.84,338.59
842.496,294.18,309.42,326.1,335.48
842.796,295.51,312.29,328.4,335.21
843.097,293.21,313.77,326.94,335.74
843.398,293.32,313.88,326.17,335.52
843.698,294.93,312.79,326.21,336.56
843.999,292.02,312.73,326.85,336.12
844.299,292.37,309.2,327.29,335.7
844.6,292.17,309.33,329.26,335.99
844.9,293.1,307.61,328.79,335.7
845.2,294.42,306.09,328.95,338.86
845.501,295.51,306.53,327.49,339.52
845.801,294.34,306.06,327.89,341.61
846.101,293.17,304.26,326.45,341.59
846.401,296.04,306.29,328.24,340.16
846.701,297.51,305.36,327.78,339.98
847.001,297.69,304.65,325.11,339.69
847.301,297.89,303.31,324.4,341.26
847.601,297.4,306.53,324.71,341.35
847.9,297.73,304.21,322.55,339.19
848.2,297.12,304.03,323.03,338.83
848.5,297.73,305.4,321.14,337.2
848.799,296.52,305.25,322.79,338.33
849.099,296.79,306.33,324.45,337.27
849.398,295.81,306.79,324.14,336.27
849.698,296.19,305.71,324.23,335.02
849.997,293.83,307.41,324.47,335.68
850.297,292.46,309.48,327.6,336.85
850.596,294.38,308.01,327.84,333.82
850.895,291.64,307.32,328.2,333.34
851.194,291.14,308.58,329.92,335.68
851.493,290.41,309.09,330.56,335.59
851.793,290.83,310.7,331.57,337.51
852.092,292,311.51,329.35,336.43
852.39,291.49,313.17,326.87,337.55
852.689,290.92,312.68,327.27,338.81
852.988,288.45,311.6,325.31,338.57
853.287,288.47,310.96,325.84,339.1
853.586,289.84,311.87,324.2,337.73
853.884,289.04,313.9,324.09,338.39
854.183,289.95,313.77,324.93,338.15
854.482,290.61,315.62,325.99,336.45
854.78,290.52,316.66,324.05,337.09
855.078,289.04,313.15,321.53,335.88
855.377,288.93,313.08,323.01,335.61
855.675,288.07,312.4,322.92,333.34
855.973,288.91,311.82,324.42,334.18
856.272,288.64,310.81,325.86,333.29
856.57,289.57,310.5,325.04,332.37
856.868,289.37,308.65,324.78,331.97
857.166,290.19,308.6,325.68,332.88
857.464,292.02,307.43,323.7,333.82
857.762,289.75,307.48,321.22,333.01
858.06,290.23,305.53,320.67,332.96
858.358,291.36,308.49,321.47,334.11
858.655,291.93,308.07,320.63,332.39
858.953,296.3,307.81,322.31,335.77
859.251,297.03,308.73,321.56,334.66
859.548,298.75,310.72,320.54,334.05
859.846,296.04,310.35,320.87,332.74
860.143,296.15,310.68,321.25,331.88
860.441,293.94,310.54,321.34,330.27
860.738,293.03,310.72,322.95,330.47
861.036,291.75,309.82,322.75,330.49
861.333,290.65,309.97,323.67,328.93
861.63,292.28,309.11,323.67,328.64
861.927,291.49,310.63,323.67,331.33
862.224,291.38,309.88,323.41,328.95
862.521,291.53,308.98,321.38,328.29
862.818,292.73,309.37,322.64,329.5
863.115,294.6,310.68,321.34,330.62
863.412,294.95,310.19,322.5,331.31
863.709,296.7,308.67,320.83,331.4
864.006,298.13,308.8,320.74,329.3
864.302,301.93,307.74,320.3,329.68
864.599,304.71,309.2,320.92,331.49
864.896,303.12,309.02,321.4,330.05
865.192,303.38,307.63,320.85,329.43
865.489,301.64,308.71,320.03,330.29
865.785,300.14,308.56,319.75,328.33
866.081,298.44,307.28,318.53,327.49
866.378,299.81,308.34,319.26,325.57
866.674,298.99,308.98,318.51,325.06
866.97,296.37,311.1,320.25,326.41
867.266,294.54,312.49,318.27,326.04
867.562,293.5,311.25,320.47,325.84
867.858,291.16,311.34,321,324.76
868.154,289.88,312.62,319.88,323.67
868.45,288,313.61,320.17,321.78
868.746,286.37,312.07,319.9,320.94
869.042,287.19,312.73,320.5,324.4
869.338,287.67,312.68,321.71,323.74
869.633,286.41,310.39,321.51,324.31
869.929,285.36,308.54,320.92,325.37
870.224,288.64,307.94,320.94,322.66
870.52,290.03,307.3,320.36,322.55
870.815,289.04,308.32,319.06,322.04
871.111,291.53,305.58,318.62,322.68
871.406,292.31,305.6,321.07,321.4
871.701,294.05,304.76,321.05,320.43
871.997,295.42,306.53,321.49,320.72
872.292,295.13,306.04,323.01,319.83
872.587,295.75,306.81,322.09,321.11
872.882,297.69,306.53,321.16,322.9
873.177,298.88,308.89,321.07,321.53
873.472,299.39,307.28,320.08,321
873.767,299.94,307.32,321.47,322.28
874.062,300.45,308.38,322.17,321.8
874.356,298.66,309.77,321.51,320.23
874.651,301.07,308.84,320.65,321.22
874.946,300.96,308.05,321.42,321.36
875.24,300.63,306.79,321.93,319.28
875.535,303.91,307.3,321.31,318.82
875.829,304.11,305.73,320.94,317.72
876.124,302.94,307.28,322.11,315.07
876.418,303.14,306.62,324.14,316.06
876.712,302.57,310.48,323.92,317.05
877.007,303.03,309.09,325.44,315.91
877.301,301.86,307.96,324.65,315.84
877.595,303.23,310.81,324.56,315.8
877.889,301.18,309.9,323.72,316.41
878.183,301.97,310.12,322.9,316.83
878.477,302.28,309.88,322,317.39
878.771,300.22,309.8,321.65,316.84
879.065,299.93,311.68,321.95,317.85
879.359,299.61,311.02,322.38,318.25
879.652,300.03,311.38,320.41,315.94
879.946,299.17,307.78,320.85,315.72